time,wx (rad/s),wy (rad/s),wz (rad/s)
0.0,0.53,-0.15,-0.04
0.009233000000000047,0.55,-0.23,-0.04
0.01932400000000012,0.53,-0.25,-0.04
0.030369000000000312,0.47,-0.26,-0.04
0.0395850000000002,0.36,-0.29,-0.04
0.050051999999999985,0.23,-0.34,-0.03
0.0608430000000002,0.11,-0.38,-0.04
0.07065400000000022,0.01,-0.36,-0.05
0.08064300000000024,-0.07,-0.3,-0.07
0.09106000000000014,-0.07,-0.2,-0.06
0.10134700000000008,-0.13,-0.12,-0.11
0.11163300000000032,-0.16,-0.07,-0.13
0.12241400000000002,-0.15,0.02,-0.17
0.1323190000000003,-0.15,0.06,-0.2
0.14252400000000032,-0.14,0.16,-0.24
0.1521760000000003,-0.15,0.29,-0.34
0.16326300000000016,-0.11,0.3,-0.32
0.17334700000000014,-0.07,0.23,-0.24
0.18345600000000006,-0.04,0.24,-0.28
0.19384700000000032,0.0,0.28,-0.39
0.20445599999999997,0.06,0.21,-0.36
0.214159,0.12,0.15,-0.35
0.224472,0.17,0.11,-0.35
0.2347100000000002,0.22,0.07,-0.35
0.24990099999999993,0.26,0.02,-0.36
0.2549140000000003,0.3,-0.04,-0.36
0.265644,0.32,-0.12,-0.36
0.276011,0.32,-0.2,-0.36
0.2861440000000002,0.29,-0.29,-0.35
0.2965200000000001,0.23,-0.37,-0.34
0.30698800000000004,0.15,-0.44,-0.32
0.3169520000000001,0.08,-0.51,-0.3
0.32845800000000036,0.04,-0.58,-0.29
0.33739700000000017,0.03,-0.63,-0.29
0.3476340000000002,0.05,-0.66,-0.29
0.3580680000000003,0.07,-0.68,-0.28
0.36793699999999996,0.09,-0.69,-0.28
0.3818380000000001,0.07,-0.7,-0.27
0.3879640000000002,0.03,-0.74,-0.25
0.39867700000000017,-0.02,-0.81,-0.21
0.40846000000000027,-0.05,-0.9,-0.17
0.41915400000000025,-0.07,-1.0,-0.12
0.4293840000000002,-0.06,-1.11,-0.06
0.4397820000000001,-0.04,-1.24,0.0
0.450704,-0.05,-1.43,0.05
0.461144,-0.07,-1.68,0.1
0.47065500000000027,-0.11,-1.88,0.13
0.481382,-0.16,-1.96,0.14
0.49171699999999996,-0.22,-1.87,0.13
0.5009490000000003,-0.29,-1.62,0.12
0.5147740000000001,-0.34,-1.28,0.1
0.522179,-0.38,-0.99,0.09
0.531863,-0.37,-0.93,0.1
0.5428000000000002,-0.33,-1.14,0.13
0.5526660000000003,-0.26,-1.47,0.17
0.563374,-0.19,-1.63,0.18
0.5730600000000003,-0.13,-1.45,0.14
0.582897,-0.09,-0.96,0.09
0.5936050000000002,-0.1,-0.55,0.04
0.6044110000000003,-0.11,-0.34,0.01
0.614687,-0.19,-0.16,0.0
0.6250620000000002,-0.33,-0.07,0.0
0.6349670000000001,-0.36,-0.08,0.02
0.644908,-0.39,-0.17,0.06
0.6555650000000002,-0.39,-0.27,0.11
0.6658720000000002,-0.39,-0.35,0.15
0.676593,-0.38,-0.37,0.18
0.685861,-0.37,-0.34,0.19
0.6957800000000001,-0.35,-0.27,0.19
0.7067399999999999,-0.32,-0.18,0.19
0.7160839999999999,-0.28,-0.1,0.19
0.7266220000000003,-0.19,-0.05,0.14
0.7367220000000003,-0.17,-0.01,0.16
0.7476760000000002,-0.16,0.01,0.16
0.757841,-0.14,0.07,0.15
0.7683590000000002,-0.15,0.16,0.18
0.7785980000000001,-0.11,0.23,0.16
0.788516,-0.09,0.3,0.15
0.7981340000000001,-0.08,0.37,0.14
0.8095920000000003,-0.07,0.41,0.14
0.8190790000000003,-0.07,0.45,0.14
0.8296800000000002,-0.07,0.48,0.14
0.8403050000000003,-0.07,0.49,0.14
0.8503830000000003,-0.07,0.5,0.14
0.859801,-0.06,0.5,0.13
0.8698760000000001,-0.05,0.46,0.13
0.880817,-0.03,0.4,0.12
0.8921890000000001,-0.01,0.34,0.1
0.9015340000000003,0.01,0.3,0.08
0.912137,0.01,0.21,0.05
0.9231240000000001,0.04,0.23,0.04
0.9318550000000001,0.06,0.23,0.04
0.9453140000000002,0.07,0.23,0.04
0.9533100000000001,0.08,0.22,0.04
0.9628680000000003,0.03,0.22,0.04
0.9735290000000001,-0.02,0.28,0.06
0.9832300000000003,-0.07,0.23,0.06
0.9935700000000001,-0.07,0.15,0.04
1.0041420000000003,-0.18,0.09,0.06
1.0135010000000002,-0.33,0.02,0.1
1.0246690000000003,-0.39,-0.07,0.11
1.0343400000000003,-0.44,-0.15,0.11
1.0440740000000002,-0.48,-0.22,0.12
1.055015,-0.49,-0.26,0.11
1.0647700000000002,-0.48,-0.31,0.11
1.078602,-0.47,-0.37,0.11
1.0857240000000004,-0.47,-0.48,0.11
1.096012,-0.48,-0.62,0.11
1.1078480000000002,-0.47,-0.72,0.12
1.1166810000000003,-0.43,-0.74,0.11
1.1266290000000003,-0.36,-0.72,0.1
1.136676,-0.28,-0.75,0.09
1.1470290000000003,-0.2,-0.91,0.09
1.157693,-0.1,-1.07,0.09
1.1677690000000003,0.02,-1.07,0.06
1.178207,0.14,-0.85,0.02
1.1887720000000002,0.23,-0.53,-0.03
1.198649,0.28,-0.23,-0.08
1.2105840000000003,0.31,-0.03,-0.12
1.219154,0.34,0.09,-0.15
1.2287600000000003,0.36,0.17,-0.17
1.240065,0.39,0.25,-0.19
1.250102,0.41,0.35,-0.19
1.259999,0.39,0.43,-0.17
1.2702520000000002,0.35,0.45,-0.14
1.2803460000000002,0.29,0.4,-0.11
1.2905830000000003,0.23,0.32,-0.08
1.301695,0.15,0.21,-0.05
1.3122000000000003,0.13,0.15,-0.03
1.32315,0.11,0.12,-0.02
1.3318370000000002,0.06,0.06,-0.01
1.3426850000000004,0.03,0.03,-0.01
1.3523870000000002,0.08,-0.02,-0.0
1.362753,0.1,-0.05,-0.0
1.3734000000000002,0.05,-0.02,-0.0
1.3832280000000003,0.03,-0.01,-0.0
1.3931180000000003,0.01,-0.01,-0.0
1.403565,0.03,0.06,-0.06
1.4139080000000002,0.04,0.09,-0.1
1.4236150000000003,0.05,0.15,-0.09
1.4348480000000001,0.07,0.25,-0.11
1.4447330000000003,0.07,0.28,-0.12
1.456382,0.08,0.3,-0.12
1.464839,0.08,0.32,-0.13
1.4757230000000003,0.09,0.31,-0.14
1.4860320000000002,0.1,0.29,-0.15
1.4954619999999998,0.12,0.26,-0.16
1.5066860000000002,0.17,0.21,-0.16
1.516712,0.23,0.16,-0.15
1.5271629999999998,0.28,0.1,-0.14
1.537102,0.32,0.04,-0.14
1.5474380000000005,0.36,-0.04,-0.13
1.557067,0.36,-0.13,-0.13
1.5673310000000003,0.36,-0.24,-0.12
1.5782540000000003,0.35,-0.38,-0.1
1.5883700000000003,0.33,-0.57,-0.07
1.5982130000000003,0.3,-0.84,-0.03
1.6081270000000005,0.27,-1.15,0.02
1.6185429999999998,0.23,-1.44,0.08
1.6295359999999999,0.21,-1.62,0.14
1.6407759999999998,0.19,-1.72,0.19
1.649508,0.16,-1.75,0.22
1.6596549999999999,0.12,-1.73,0.23
1.670903,0.06,-1.7,0.22
1.68065,0.0,-1.65,0.22
1.690575,-0.06,-1.61,0.22
1.7008830000000001,-0.12,-1.56,0.23
1.7111030000000005,-0.2,-1.52,0.24
1.7211800000000004,-0.27,-1.48,0.25
1.7319050000000002,-0.33,-1.43,0.27
1.7422120000000003,-0.37,-1.38,0.26
1.7521690000000003,-0.38,-1.33,0.25
1.762619,-0.37,-1.27,0.22
1.774343,-0.32,-1.22,0.18
1.7831660000000005,-0.25,-1.12,0.12
1.7932060000000005,-0.17,-0.91,0.05
1.804328,-0.1,-0.58,0.0
1.814305,-0.09,-0.1,-0.1
1.8240810000000005,-0.1,0.34,-0.21
1.8346710000000002,-0.09,0.59,-0.21
1.8442940000000005,-0.1,0.7,-0.21
1.854482,-0.12,0.72,-0.19
1.8651400000000002,-0.15,0.71,-0.17
1.87474,-0.19,0.69,-0.14
1.8869040000000004,-0.22,0.65,-0.12
1.8953350000000002,-0.25,0.62,-0.09
1.905964,-0.29,0.59,-0.06
1.9167250000000005,-0.35,0.59,-0.03
1.9269720000000001,-0.41,0.61,-0.01
1.9375299999999998,-0.47,0.63,0.01
1.9474739999999997,-0.49,0.66,0.03
1.9575209999999998,-0.5,0.68,0.04
1.969525,-0.49,0.69,0.05
1.9778460000000004,-0.48,0.7,0.05
1.988416,-0.47,0.72,0.04
1.9989790000000003,-0.44,0.75,0.02
2.008711,-0.41,0.78,0.02
2.0198720000000003,-0.37,0.82,0.02
2.0293229999999998,-0.33,0.85,0.02
2.0395460000000005,-0.3,0.89,0.03
2.050331,-0.3,0.92,0.02
2.0596060000000005,-0.31,0.95,0.02
2.070271,-0.32,0.98,0.01
2.0803010000000004,-0.33,1.0,0.0
2.090682,-0.34,1.02,0.0
2.102937,-0.33,1.05,0.0
2.11134,-0.31,1.09,0.0
2.1216939999999997,-0.29,1.12,-0.0
2.1325380000000003,-0.27,1.14,-0.0
2.1421479999999997,-0.24,1.15,-0.0
2.152094,-0.22,1.15,-0.0
2.162071,-0.19,1.13,-0.0
2.1731810000000005,-0.16,1.09,-0.0
2.1830740000000004,-0.15,1.03,0.0
2.192729,-0.14,0.94,0.01
2.20604,-0.14,0.82,0.02
2.213565,-0.15,0.68,0.03
2.22346,-0.17,0.53,0.06
2.234413,-0.2,0.37,0.08
2.2444360000000003,-0.26,0.22,0.09
2.255045,-0.33,0.08,0.09
2.265326,-0.39,-0.04,0.09
2.274738,-0.43,-0.15,0.1
2.285176,-0.48,-0.27,0.1
2.2955750000000004,-0.54,-0.42,0.1
2.305994,-0.62,-0.62,0.09
2.31729,-0.68,-0.81,0.09
2.326511,-0.72,-0.93,0.09
2.3364020000000005,-0.74,-0.99,0.08
2.347709,-0.76,-1.07,0.08
2.3572620000000004,-0.78,-1.2,0.07
2.367755,-0.78,-1.34,0.06
2.3778940000000004,-0.73,-1.43,0.04
2.3877189999999997,-0.63,-1.42,0.01
2.3987990000000003,-0.48,-1.31,-0.01
2.408085,-0.31,-1.11,-0.04
2.418299,-0.14,-0.84,-0.07
2.429334,0.01,-0.55,-0.11
2.438758,0.15,-0.27,-0.14
2.450309,0.27,-0.03,-0.16
2.459676,0.33,0.15,-0.18
2.46966,0.36,0.26,-0.19
2.480119,0.35,0.3,-0.2
2.4911010000000005,0.33,0.28,-0.21
2.504186,0.29,0.23,-0.21
2.510896,0.2,0.15,-0.16
2.521218,0.14,0.08,-0.17
2.5317990000000004,0.11,0.04,-0.18
2.5418260000000004,0.03,-0.05,-0.17
2.5519750000000005,-0.01,-0.1,-0.16
2.5624130000000003,-0.07,-0.12,-0.17
2.5719510000000003,-0.1,-0.13,-0.17
2.583151,-0.1,-0.03,-0.19
2.592772,-0.1,0.09,-0.26
2.6029,-0.03,0.21,-0.26
2.6139669999999997,0.04,0.33,-0.27
2.62373,0.11,0.44,-0.29
2.634018,0.17,0.54,-0.32
2.643903,0.23,0.62,-0.33
2.654319,0.29,0.67,-0.35
2.666746,0.32,0.7,-0.35
2.6749410000000005,0.34,0.7,-0.35
2.6862909999999998,0.34,0.68,-0.35
2.695838,0.33,0.64,-0.35
2.705755,0.31,0.58,-0.36
2.7158230000000003,0.29,0.51,-0.37
2.7267780000000004,0.28,0.44,-0.37
2.736071,0.27,0.36,-0.37
2.746505,0.28,0.3,-0.36
2.7576,0.28,0.25,-0.34
2.7677579999999997,0.28,0.21,-0.33
2.7774099999999997,0.26,0.17,-0.32
2.7876909999999997,0.24,0.13,-0.31
2.798069,0.17,0.08,-0.23
2.808778,0.14,0.02,-0.24
2.819007,0.12,-0.06,-0.3
2.8298750000000004,0.02,-0.16,-0.24
2.83955,-0.08,-0.33,-0.2
2.8492189999999997,-0.19,-0.58,-0.16
2.8606920000000002,-0.3,-0.88,-0.12
2.8699529999999998,-0.4,-1.16,-0.09
2.8819110000000006,-0.46,-1.33,-0.07
2.8909140000000004,-0.49,-1.42,-0.06
2.90046,-0.49,-1.48,-0.06
2.911804,-0.47,-1.52,-0.07
2.9214340000000005,-0.44,-1.54,-0.06
2.931807,-0.43,-1.54,-0.06
2.9424220000000005,-0.45,-1.52,-0.05
2.951873,-0.48,-1.49,-0.04
2.962511,-0.52,-1.45,-0.02
2.972524,-0.55,-1.4,-0.02
2.982807,-0.57,-1.35,-0.02
2.9930630000000003,-0.56,-1.31,-0.02
3.002713,-0.54,-1.26,-0.03
3.013394,-0.5,-1.21,-0.04
3.0233800000000004,-0.48,-1.16,-0.06
3.0357529999999997,-0.48,-1.1,-0.07
3.043843,-0.48,-1.03,-0.08
3.0543560000000003,-0.49,-0.96,-0.08
3.064195,-0.5,-0.9,-0.08
3.074566,-0.51,-0.85,-0.07
3.085078,-0.54,-0.8,-0.07
3.0955700000000004,-0.6,-0.75,-0.06
3.105703,-0.69,-0.69,-0.04
3.1160380000000005,-0.8,-0.64,-0.02
3.12685,-0.91,-0.58,0.0
3.1362060000000005,-1.01,-0.54,0.03
3.146979,-1.09,-0.49,0.05
3.156847,-1.14,-0.45,0.08
3.167115,-1.17,-0.4,0.1
3.177976,-1.17,-0.29,0.12
3.1878090000000006,-1.11,-0.05,0.13
3.1978480000000005,-0.97,0.32,0.15
3.2076720000000005,-0.81,0.72,0.17
3.217783,-0.68,1.02,0.19
3.2289849999999998,-0.59,1.2,0.21
3.239057,-0.54,1.31,0.22
3.2490870000000003,-0.51,1.39,0.23
3.259595,-0.48,1.46,0.24
3.2699620000000005,-0.45,1.52,0.25
3.2806690000000005,-0.38,1.58,0.26
3.2906459999999997,-0.31,1.63,0.27
3.3005250000000004,-0.23,1.66,0.27
3.311103,-0.17,1.69,0.27
3.3212140000000003,-0.12,1.71,0.27
3.331536,-0.07,1.72,0.27
3.341893,-0.01,1.72,0.27
3.3511500000000005,0.05,1.71,0.27
3.362335,0.1,1.69,0.27
3.3723030000000005,0.14,1.67,0.27
3.382861,0.18,1.63,0.26
3.39325,0.2,1.57,0.26
3.402585,0.22,1.49,0.25
3.4131169999999997,0.22,1.41,0.25
3.4241270000000004,0.21,1.31,0.24
3.4339779999999998,0.19,1.21,0.24
3.4489540000000005,0.15,1.1,0.23
3.454554,0.1,0.96,0.22
3.464634,0.03,0.81,0.22
3.475097,-0.07,0.64,0.22
3.485468,-0.16,0.47,0.23
3.4950289999999997,-0.23,0.34,0.24
3.505972,-0.26,0.25,0.24
3.515734,-0.26,0.18,0.23
3.5276000000000005,-0.26,0.1,0.22
3.536404,-0.28,-0.02,0.2
3.5469860000000004,-0.35,-0.21,0.16
3.5580819999999997,-0.45,-0.42,0.12
3.567512,-0.5,-0.55,0.08
3.581569,-0.47,-0.56,0.06
3.587999,-0.38,-0.51,0.05
3.597837,-0.29,-0.49,0.03
3.6081950000000003,-0.25,-0.56,-0.0
3.618615,-0.25,-0.73,-0.04
3.62847,-0.27,-0.92,-0.08
3.6383540000000005,-0.23,-1.0,-0.12
3.649316,-0.1,-0.88,-0.15
3.660437,0.08,-0.62,-0.17
3.6693500000000006,0.23,-0.36,-0.19
3.6798640000000002,0.31,-0.18,-0.21
3.690822,0.33,-0.07,-0.23
3.700622,0.33,0.01,-0.25
3.7146220000000003,0.31,0.08,-0.26
3.7212750000000003,0.3,0.1,-0.28
3.731101,0.29,0.08,-0.28
3.7417309999999997,0.27,0.0,-0.29
3.7512730000000003,0.25,-0.08,-0.3
3.7627880000000005,0.22,-0.17,-0.3
3.7721670000000005,0.16,-0.32,-0.3
3.7827140000000004,0.05,-0.54,-0.31
3.7931790000000003,-0.09,-0.79,-0.33
3.803317,-0.2,-0.94,-0.34
3.8135700000000003,-0.24,-0.91,-0.34
3.823906,-0.19,-0.73,-0.34
3.833807,-0.11,-0.48,-0.34
3.8437289999999997,-0.01,-0.26,-0.34
3.8547190000000002,0.07,-0.1,-0.34
3.8645700000000005,0.14,-0.0,-0.35
3.8754170000000006,0.2,0.07,-0.36
3.885795,0.25,0.12,-0.37
3.895353,0.29,0.16,-0.37
3.9054660000000005,0.31,0.19,-0.38
3.9156640000000005,0.32,0.21,-0.38
3.926469,0.32,0.21,-0.37
3.935834,0.31,0.21,-0.37
3.94693,0.29,0.2,-0.36
3.959072,0.28,0.18,-0.36
3.9672920000000005,0.26,0.16,-0.35
3.977088,0.25,0.13,-0.35
3.9878080000000002,0.25,0.1,-0.34
3.9980510000000002,0.25,0.06,-0.33
4.012762,0.25,0.03,-0.31
4.018423,0.25,-0.02,-0.3
4.028490000000001,0.24,-0.07,-0.29
4.038734,0.23,-0.15,-0.27
4.048707,0.2,-0.27,-0.26
4.059291,0.14,-0.47,-0.24
4.069283,0.06,-0.72,-0.23
4.080191,-0.01,-0.96,-0.2
4.091031,-0.08,-1.11,-0.17
4.099904,-0.14,-1.19,-0.13
4.110650000000001,-0.19,-1.21,-0.09
4.121075,-0.24,-1.2,-0.06
4.131163,-0.27,-1.18,-0.03
4.145448,-0.28,-1.15,-0.0
4.152107,-0.28,-1.12,0.02
4.162575,-0.27,-1.09,0.04
4.1723680000000005,-0.26,-1.06,0.07
4.1824460000000006,-0.26,-1.03,0.11
4.192535,-0.28,-1.0,0.16
4.203158,-0.31,-0.96,0.21
4.21302,-0.35,-0.9,0.26
4.223921,-0.38,-0.83,0.31
4.233655,-0.4,-0.78,0.34
4.243712,-0.4,-0.75,0.35
4.254209,-0.36,-0.71,0.34
4.264112,-0.24,-0.5,0.25
4.2779490000000004,0.02,-0.12,0.26
4.285064,0.35,0.38,0.32
4.2955570000000005,0.59,0.83,0.27
4.30567,0.72,1.04,0.24
4.315985,0.74,1.04,0.22
4.326027,0.71,0.92,0.22
4.33689,0.67,0.76,0.24
4.3467270000000005,0.65,0.6,0.28
4.356781,0.66,0.44,0.33
4.366854,0.66,0.31,0.38
4.377195,0.65,0.16,0.43
4.388008,0.6,-0.07,0.47
4.397787,0.53,-0.38,0.5
4.410658,0.46,-0.68,0.52
4.418534,0.42,-0.89,0.52
4.428052,0.41,-0.98,0.52
4.439706,0.43,-1.01,0.52
4.448929000000001,0.49,-1.02,0.53
4.459275,0.6,-1.02,0.54
4.469037,0.7,-1.0,0.56
4.479021,0.78,-0.94,0.57
4.489364,0.86,-0.76,0.57
4.500196,0.93,-0.46,0.56
4.510125,0.98,-0.13,0.56
4.5211440000000005,1.0,0.13,0.55
4.531176,1.0,0.31,0.54
4.541444,0.97,0.44,0.53
4.551344,0.95,0.54,0.52
4.56161,0.92,0.63,0.52
4.572408,0.9,0.71,0.52
4.582498,0.9,0.77,0.53
4.592396,0.91,0.84,0.53
4.602757,0.93,0.89,0.53
4.618464,0.94,0.95,0.53
4.622741,0.94,1.0,0.52
4.632964,0.92,1.05,0.51
4.643499,0.93,1.07,0.51
4.654043,0.95,1.07,0.51
4.6642030000000005,0.97,1.06,0.5
4.674085,0.94,1.03,0.48
4.6846250000000005,0.87,1.0,0.44
4.69508,0.77,0.96,0.41
4.707755000000001,0.69,0.89,0.39
4.715133,0.62,0.8,0.39
4.726419,0.56,0.72,0.39
4.737349,0.51,0.63,0.39
4.746936,0.45,0.55,0.39
4.756662,0.39,0.47,0.39
4.767496,0.33,0.4,0.39
4.777315,0.27,0.33,0.38
4.787795,0.22,0.26,0.36
4.79878,0.18,0.18,0.34
4.808082,0.13,0.11,0.25
4.818849,0.11,-0.03,0.27
4.828945,0.1,-0.24,0.35
4.841971,0.06,-0.47,0.33
4.849373,0.04,-0.73,0.33
4.859419,0.05,-0.96,0.33
4.870161,0.1,-1.13,0.32
4.8795470000000005,0.17,-1.25,0.3
4.890679,0.28,-1.33,0.26
4.900647,0.42,-1.31,0.2
4.910763,0.58,-1.19,0.14
4.920909,0.72,-1.01,0.09
4.931444,0.82,-0.83,0.05
4.942129,0.87,-0.69,0.03
4.95347,0.86,-0.55,0.01
4.961979,0.81,-0.42,0.0
4.971784,0.75,-0.3,0.0
4.982925,0.67,-0.23,0.01
4.9925880000000005,0.61,-0.23,0.02
